time,millis,duty,freq,v_pa,i_pa,v_ba,i_ba,meter_v_pa,meter_i_pa,meter_v_ba,meter_i_ba
1679544850.5475128,1500,0.1,50000.0,20.406975,0.130863,41.437679,0.096699,20.40391,-0.237906,40.01066,0.099527
1679544853.1076894,3000,0.1,50000.0,20.406046,0.22096,42.553829,0.055028,20.39847,-0.24762,40.01173,0.117261
1679544855.5474555,4500,0.11,50000.0,20.393969,0.332256,41.561405,0.06121,20.39557,-0.257795,40.01234,0.121533
1679544857.9871042,6000,0.11,50000.0,20.406975,0.194903,42.645966,0.134706,20.3896,-0.30399,40.01449,0.141711
1679544860.4275584,7500,0.12,50000.0,20.383751,0.2744,42.559093,0.080672,20.37779,-0.399857,40.01973,0.186563
1679544862.86714,1500,0.1,50000.0,20.408833,0.12468,41.448208,0.076779,20.37779,-0.442362,40.01966,0.207305
1679544865.3094895,3000,0.1,50000.0,20.408833,0.157804,42.632805,0.039459,20.37264,-0.465285,40.02206,0.217892
1679544867.7474477,4500,0.11,50000.0,20.399544,0.342414,41.548241,0.067163,20.36974,-0.464766,40.0232,0.217613
1679544870.188589,6000,0.11,50000.0,20.405117,0.176353,42.461697,0.128982,20.36323,-0.51728,40.02603,0.240749
1679544872.7674387,7500,0.12,50000.0,20.387466,0.302665,42.53014,0.05686,20.34752,-0.645333,40.03295,0.299837
1679544875.3278115,9000,0.12,50000.0,20.400473,0.173703,42.503815,0.133791,20.34044,-0.704931,40.03618,0.328519
1679544877.8876867,10500,0.13,50000.0,20.380035,0.131747,42.330074,0.104713,20.34033,-0.73217,40.03628,0.341116
1679544880.4474552,12000,0.13,50000.0,20.375389,0.18342,41.911518,0.120969,20.33707,-0.786306,40.03768,0.365066
1679544883.0084112,13500,0.14,50000.0,20.369816,0.131747,42.219513,0.093265,20.33028,-0.946102,40.04062,0.437301
1679544885.5674496,15000,0.14,50000.0,20.359596,0.188278,41.703556,0.118679,20.31092,-0.944517,40.04897,0.436761
1679544888.0080614,16500,0.15,50000.0,20.364243,0.322539,42.830235,0.2572,20.30076,-1.027524,40.05359,0.476157
1679544890.4478006,18000,0.15,50000.0,20.342875,0.597687,41.545609,0.113413,20.29714,-1.057548,40.05528,0.489904
1679544892.8885748,19500,0.16,50000.0,20.363312,0.358313,42.72757,0.181872,20.29024,-1.112271,40.05807,0.513967
1679544895.3281455,21000,0.16,50000.0,20.324295,0.592829,42.411678,0.150276,20.29038,-1.293617,40.05804,0.594888
1679544897.7683458,22500,0.17,50000.0,20.386538,0.228468,42.556461,0.087312,20.26798,-1.411343,40.06768,0.649776
1679544900.2078133,24000,0.17,50000.0,20.316864,0.162662,42.022079,0.10311,20.25406,-1.410133,40.07384,0.649298
1679544902.6495497,25500,0.18,50000.0,20.368887,0.364938,42.382721,0.093036,20.24952,-1.446181,40.07582,0.665757
1679544905.088387,27000,0.18,50000.0,20.33823,0.281466,43.014507,0.121885,20.24347,-1.496246,40.0785,0.687669
1679544907.5284503,28500,0.19,50000.0,20.32058,0.792897,42.177391,0.202707,20.24347,-1.697505,40.07832,0.776273
1679544909.9681888,30000,0.19,50000.0,20.339159,0.459451,43.001343,0.329093,20.21878,-1.851986,40.08886,0.847197
1679544912.4093535,31500,0.2,50000.0,20.288994,1.173599,42.053669,0.162182,20.2,-1.851936,40.09728,0.847204
1679544914.9682105,33000,0.2,50000.0,20.343803,0.36273,42.745998,0.282843,20.19513,-1.893335,40.09936,0.866071
1679544917.5284233,34500,0.21,50000.0,20.289923,0.40557,42.006287,0.162868,20.18908,-1.94002,40.10191,0.886368
1679544920.089032,36000,0.21,50000.0,20.357738,0.564564,42.527508,0.136996,20.16543,-2.133371,40.1118,0.969917
1679544922.5484939,37500,0.22,50000.0,20.269485,0.511566,41.750938,0.255368,20.15248,-2.352696,40.11782,1.068369
1679544925.0889013,39000,0.22,50000.0,20.340088,0.639202,42.140537,0.174087,20.1386,-2.404461,40.12345,1.091736
1679544927.528946,40500,0.23,50000.0,20.269485,0.716491,41.627216,0.593313,20.13255,-2.444491,40.1261,1.10913
1679544930.0087678,42000,0.23,50000.0,20.213745,1.340101,41.498226,0.316043,20.12754,-2.445035,40.12814,1.109398
1679544932.5689187,43500,0.24,50000.0,20.270414,0.787155,41.621948,0.648722,20.106,-2.620231,40.13703,1.18396
1679544935.132067,45000,0.24,50000.0,20.212816,1.181107,41.448208,0.363895,20.07029,-2.911127,40.15233,1.311942
1679544937.5888464,46500,0.25,50000.0,20.271343,0.91435,41.78516,0.440368,20.06167,-2.980432,40.15588,1.342786
1679544940.1489358,48000,0.25,50000.0,20.204456,1.126343,41.469269,0.35176,20.06178,-3.015807,40.15581,1.358007
1679544942.708744,49500,0.26,50000.0,20.265768,0.880343,42.187923,0.493945,20.05766,-3.138404,40.15771,1.403496
1679544945.2694895,51000,0.26,50000.0,20.176586,0.990314,41.469269,0.371222,19.95977,-3.138646,40.16308,1.403677
1679544947.8292208,52500,0.27,50000.0,20.21003,1.547235,42.116848,0.517299,19.92302,-3.507552,40.1819,1.562354
1679544950.3890028,54000,0.27,50000.0,20.156147,1.143125,41.643009,0.622162,19.91253,-3.612217,40.18738,1.608383
1679544952.9487357,55500,0.28,50000.0,20.178444,1.516319,42.003651,0.558053,19.90949,-3.642588,40.18889,1.621391
1679544955.5096238,57000,0.28,50000.0,20.243473,1.377641,42.31691,0.694971,19.8998,-3.740461,40.19383,1.661949
1679544957.9691782,58500,0.29,50000.0,20.122704,1.416948,41.937843,0.554848,19.89958,-4.156632,40.19376,1.837248
1679544960.5290892,60000,0.29,50000.0,20.254622,1.358209,42.393253,0.66017,19.85808,-4.318792,40.21462,1.907485
1679544963.0896306,61500,0.3,50000.0,20.074396,1.710645,41.385033,0.601098,19.84187,-4.31815,40.2229,1.907361
1679544965.6492276,63000,0.3,50000.0,20.229538,1.368808,42.516975,0.709854,19.83861,-4.350898,40.22455,1.921286
1679544968.109599,64500,0.31,50000.0,20.116201,1.695188,41.761467,0.827539,19.83217,-4.413714,40.22767,1.947127
1679544970.549452,66000,0.31,50000.0,20.19981,1.949136,42.443268,0.709167,19.79195,-4.814688,40.24723,2.112469
1679544972.9895184,67500,0.32,50000.0,20.133852,1.789259,41.890457,0.94179,19.79192,-5.090678,40.24727,2.229664
1679544975.6893785,69000,0.32,50000.0,20.161722,2.051599,42.285324,0.754272,19.7644,-5.133681,40.26121,2.247861
1679544978.129435,70500,0.33,50000.0,20.152431,1.787051,42.058933,0.909278,19.76007,-5.168267,40.26329,2.262047
1679544980.57,72000,0.33,50000.0,20.035379,1.694304,41.814117,0.701611,19.75589,-5.168195,40.26519,2.261978
1679544983.0097976,73500,0.34,50000.0,20.151503,1.913804,42.527508,1.059018,19.7269,-5.457762,40.27902,2.37883
1679544985.4501803,75000,0.34,50000.0,20.019587,2.015826,41.466637,0.654217,19.68021,-5.920484,40.302,2.570704
1679544987.8898056,76500,0.35,50000.0,20.142214,2.336022,42.561729,1.06085,19.68014,-5.9873,40.30203,2.598644
1679544990.3298666,78000,0.35,50000.0,20.004723,2.145229,41.771999,0.98369,19.67295,-6.007102,40.30562,2.606656
1679544992.770645,79500,0.36,50000.0,20.021444,2.548455,41.937843,0.948659,19.67127,-6.006745,40.3063,2.60649
1679544995.2104745,81000,0.36,50000.0,19.995432,2.256525,41.590363,1.087409,19.41085,-6.066311,40.30497,2.59553
1679544997.649947,82500,0.37,50000.0,19.97035,2.489716,42.469593,0.95072,19.33571,-6.650677,40.3325,2.825023
1679545000.0897338,84000,0.37,50000.0,20.00658,2.29804,41.824646,1.169377,19.30645,-6.870524,40.34336,2.913409
1679545002.5299673,85500,0.38,50000.0,19.907179,2.511357,41.469269,0.898059,19.30666,-6.887639,40.34321,2.920226
1679545004.97,87000,0.38,50000.0,20.014942,2.432743,42.177391,1.270348,19.30369,-6.927683,40.34414,2.93548
1679545007.410017,88500,0.39,50000.0,19.844007,2.72379,41.242882,1.016889,19.29861,-6.927601,40.34583,2.935393
1679545009.8504713,90000,0.39,50000.0,20.043739,3.055911,42.390621,1.269432,19.24784,-7.319239,40.36382,3.084349
1679545012.2899709,91500,0.4,50000.0,19.849581,2.734832,41.092831,1.217916,19.17896,-7.851789,40.38898,3.292012
1679545014.730693,93000,0.4,50000.0,20.005651,3.18134,42.208981,1.251573,19.17796,-7.904109,40.38923,3.312512
1679545017.1702046,94500,0.41,50000.0,19.852367,2.813445,41.666702,1.28317,19.17062,-7.900826,40.39177,3.311136
1679545019.6100607,96000,0.41,50000.0,19.944338,3.173832,42.52224,1.209674,19.17066,-7.902974,40.39159,3.311799
1679545022.050265,97500,0.42,50000.0,19.911823,2.645177,42.211613,1.452371,19.1683,-7.916273,40.39224,3.316618
1679545024.4912937,99000,0.42,50000.0,19.775263,3.18134,41.837811,1.121066,18.94667,-9.097517,40.44689,3.765801
1679545026.9333682,100500,0.43,50000.0,19.888599,2.956982,42.224777,1.636684,18.08965,-9.098677,40.42629,3.595984
1679545029.3702931,102000,0.43,50000.0,19.660995,3.372133,41.07967,1.160905,18.08686,-9.099621,40.42629,3.43016
1679545031.8104253,103500,0.44,50000.0,19.890457,3.770501,42.301117,1.592037,17.2473,-9.100821,40.40622,3.270031
1679545034.2502992,105000,0.44,50000.0,19.728813,3.460904,41.206024,1.597303,16.43676,-9.100256,40.38679,3.269912
1679545036.6909225,106500,0.45,50000.0,19.869089,3.824824,42.435371,1.598906,15.65123,-9.101409,40.36805,3.114486
1679545039.1313815,108000,0.45,50000.0,19.738102,3.542609,41.263939,1.643553,14.88699,-9.102385,40.3497,2.962486
1679545041.5908773,189000,0.72,50000.0,16.00635,8.802661,41.369236,3.322288,14.57416,-9.103217,40.34117,2.814838
1679545044.0312414,189000,0.72,50000.0,16.00635,8.802661,41.369236,3.322288,14.1455,-9.104006,40.33189,2.671349
1679545046.470765,190500,0.73,50000.0,15.196271,9.424504,40.358383,2.971063,13.42864,-8.8571,40.31476,2.527684
1679545048.910731,192000,0.73,50000.0,15.299389,9.034527,40.832222,3.18743,12.7307,-9.105631,40.29798,2.531981
1679545051.3508255,193500,0.74,50000.0,14.348104,9.333082,40.361015,2.828421,12.0495,-9.10655,40.28142,2.395227
1679545053.7925837,195000,0.74,50000.0,14.558984,9.374156,40.62426,3.094472,11.3881,-9.107609,40.26551,2.261866
1679545056.2307434,196500,0.75,50000.0,13.611414,9.000078,40.350487,2.735692,11.38813,-9.108528,40.26566,2.131542
1679545059.2509809,198000,0.75,50000.0,13.863171,9.541983,40.184643,2.517722,10.664411,-0.119766,40.24999,0.05554
1679545062.2912917,199500,0.76,50000.0,12.931394,8.778811,40.516331,2.631057,20.431,-0.131746,40.00396,0.062329
1679545064.7315164,201000,0.76,50000.0,13.113476,9.497818,40.163586,2.396831,20.41289,-0.141831,40.00471,0.065685
1679545067.1707435,202500,0.77,50000.0,12.274597,8.708148,40.626892,2.535123,20.41107,-0.142224,40.005,0.065605
1679545069.611789,204000,0.77,50000.0,12.360993,9.524758,40.192539,2.348979,20.41007,-0.147916,40.00528,0.068111
1679545072.0511997,205500,0.78,50000.0,11.749719,9.458953,40.031963,2.519783,20.40903,-0.155512,40.00571,0.071286
1679545074.491548,207000,0.78,50000.0,11.626163,9.520783,40.224129,2.222135,20.40685,-0.173181,40.00643,0.078578
1679545076.9314249,208500,0.79,50000.0,11.092922,9.537125,39.866119,2.248923,20.4067,-0.216151,40.00639,0.096218
1679545079.3712316,210000,0.79,50000.0,10.909911,9.314533,40.253086,2.144059,20.40148,-0.304066,40.00854,0.136501
1679545081.810958,211500,0.8,50000.0,10.446345,9.52785,39.924034,1.932042,20.39053,-0.303219,40.01335,0.136291
1679545084.2519877,213000,0.8,50000.0,10.340441,8.970929,40.642685,2.165582,20.38312,-0.365941,40.01718,0.168916
1679545086.6915865,214500,0.1,100000.0,20.380035,0.027517,45.123081,0.013815,20.37987,-0.392676,40.01876,0.183141
1679545089.130922,216000,0.1,100000.0,20.395828,0.028842,45.017784,0.013587,20.37983,-0.40427,40.01883,0.189151
1679545091.5711372,217500,0.11,100000.0,20.435774,0.13263,43.053993,0.046328,20.37836,-0.411332,40.01951,0.192558
1679545094.0116847,219000,0.11,100000.0,20.405117,0.056225,43.6147,0.02389,20.37758,-0.411945,40.01994,0.192834
1679545096.4516182,220500,0.12,100000.0,20.400473,0.12468,42.853928,0.026408,20.37661,-0.418686,40.02026,0.195911
1679545098.8921237,222000,0.12,100000.0,20.41069,0.165312,43.096111,0.024577,20.37471,-0.436384,40.02112,0.203478
1679545101.3316503,223500,0.13,100000.0,20.419052,0.096856,43.414635,0.038314,20.36917,-0.480342,40.02342,0.222027
1679545103.7715924,225000,0.13,100000.0,20.388395,0.093323,43.554153,0.015647,20.3692,-0.595305,40.02327,0.272719
1679545106.211729,226500,0.14,100000.0,20.398615,0.138371,44.923016,0.064645,20.35504,-0.719293,40.0293,0.333219
1679545108.651986,228000,0.14,100000.0,20.386538,0.078749,46.599876,0.044496,20.33965,-0.719765,40.03661,0.333567
1679545111.0918505,229500,0.15,100000.0,20.421839,0.027517,45.689053,0.0129,20.33367,-0.769199,40.03947,0.358907
1679545113.5322082,231000,0.15,100000.0,20.370745,0.027517,44.285969,0.013587,20.33131,-0.788511,40.04059,0.368715
1679545115.9723518,232500,0.16,100000.0,20.409761,0.068591,44.451813,0.054341,20.33078,-0.798286,40.04094,0.373444
1679545118.4119108,234000,0.16,100000.0,20.406975,0.137488,45.428444,0.03488,20.33028,-0.80532,40.04116,0.376583
1679545120.8532524,235500,0.17,100000.0,20.358667,0.322539,43.856884,0.099218,20.32942,-0.812,40.04152,0.379635
1679545123.2920923,237000,0.17,100000.0,20.380964,0.268217,43.164555,0.075635,20.32766,-0.820517,40.04227,0.38331
1679545125.7332666,238500,0.18,100000.0,20.376318,0.163104,45.017784,0.058692,20.32269,-0.860443,40.04435,0.400287
1679545128.172756,240000,0.18,100000.0,20.376318,0.297807,44.707157,0.037856,20.30845,-0.975535,40.05012,0.449871
1679545130.6121614,241500,0.19,100000.0,20.353094,0.444435,42.70388,0.158289,20.30848,-1.176078,40.05023,0.543153
1679545133.0524921,243000,0.19,100000.0,20.371674,0.401153,42.664391,0.169966,20.2838,-1.26373,40.0613,0.5866
1679545135.4922724,244500,0.2,100000.0,20.361454,0.527907,43.296177,0.141346,20.27303,-1.264075,40.06635,0.58677
1679545137.932471,246000,0.2,100000.0,20.359596,0.455918,42.885517,0.191031,20.2692,-1.295141,40.06815,0.602219
1679545140.3721483,247500,0.21,100000.0,20.364243,0.416611,42.635437,0.17134,20.26798,-1.308231,40.0689,0.608378
1679545142.8128757,249000,0.21,100000.0,20.376318,0.464309,43.201408,0.178667,20.26762,-1.314504,40.06926,0.611321
1679545145.2559834,250500,0.22,100000.0,20.353094,0.527465,43.193512,0.167906,20.26762,-1.325108,40.06922,0.616039
1679545147.7125044,252000,0.22,100000.0,20.331728,0.353897,43.19088,0.144552,20.26598,-1.351151,40.06997,0.625732
1679545150.1530845,253500,0.23,100000.0,20.34659,0.550431,43.338295,0.114329,20.26215,-1.35844,40.07144,0.630366
1679545152.592541,255000,0.23,100000.0,20.352165,0.430302,43.546257,0.119137,20.25005,-1.456446,40.07639,0.671967
1679545155.032575,256500,0.24,100000.0,20.358667,0.147204,43.225101,0.142949,20.2186,-1.714144,40.09001,0.786885
1679545157.4727204,258000,0.24,100000.0,20.3661,0.250992,43.175083,0.088456,20.21839,-1.87407,40.09015,0.863265
1679545159.9135063,259500,0.25,100000.0,20.301071,0.333139,43.348824,0.183017,20.19882,-1.925835,40.09918,0.888298
1679545162.3526325,261000,0.25,100000.0,20.359596,0.500083,43.64629,0.187825,20.19263,-1.926411,40.10209,0.888707
1679545164.7946172,262500,0.26,100000.0,20.317793,0.334464,43.880573,0.146841,20.19055,-1.942416,40.10302,0.89622
1679545167.2327838,264000,0.26,100000.0,20.308502,0.244809,43.483078,0.168821,20.18976,-1.949374,40.10345,0.899464
1679545169.6728451,265500,0.27,100000.0,20.281561,0.583555,43.643658,0.331154,20.18905,-1.955902,40.1037,0.902397
1679545172.1127937,267000,0.27,100000.0,20.294567,0.580905,44.414959,0.217132,20.18901,-1.978194,40.10377,0.911926
1679545174.5530944,268500,0.28,100000.0,20.284349,1.103818,43.388309,0.369161,20.18626,-2.052792,40.10481,0.943404
1679545177.1154976,270000,0.28,100000.0,20.311289,0.692642,43.172451,0.301389,20.1771,-2.051646,40.1085,0.942911
1679545179.5530157,271500,0.29,100000.0,20.32058,0.682926,43.848988,0.302763,20.14729,-2.294269,40.12076,1.047051
1679545181.993094,273000,0.29,100000.0,20.309431,0.781414,43.991138,0.323369,20.11115,-2.588044,40.13667,1.181437
1679545184.4328413,274500,0.3,100000.0,20.294567,0.629486,42.925003,0.226061,20.10586,-2.67864,40.13921,1.224319
1679545186.873161,276000,0.3,100000.0,20.319651,0.773022,44.022728,0.294063,20.10024,-2.705457,40.14162,1.23693
1679545189.313131,277500,0.31,100000.0,20.302,0.681159,44.751911,0.331841,20.09681,-2.70928,40.14323,1.238776
1679545191.7531402,279000,0.31,100000.0,20.27413,0.594596,44.35178,0.279867,20.09605,-2.711878,40.14359,1.239964
1679545194.1934998,280500,0.32,100000.0,20.283419,0.406895,43.556786,0.189657,20.09552,-2.713964,40.14377,1.240949
1679545196.6334417,282000,0.32,100000.0,20.288994,0.533207,44.459709,0.253995,20.09437,-2.72597,40.14427,1.246112
1679545199.0933313,283500,0.33,100000.0,20.238829,0.515099,43.935856,0.202936,20.09477,-2.77233,40.14412,1.265518
1679545201.5336688,285000,0.33,100000.0,20.295496,0.495225,43.946384,0.235907,20.08858,-2.937502,40.1466,1.334248
1679545203.973357,286500,0.34,100000.0,20.238829,0.573838,44.986195,0.211866,20.06832,-2.937898,40.1547,1.334592
1679545206.4336262,288000,0.34,100000.0,20.225822,0.527023,44.820351,0.205913,19.95057,-3.341347,40.17495,1.505677
1679545208.8733473,289500,0.35,100000.0,20.242544,0.811446,44.083271,0.301618,19.93096,-3.538366,40.1857,1.596377
1679545211.3140974,291000,0.35,100000.0,20.223965,0.977948,45.01252,0.429836,19.92574,-3.59115,40.18871,1.620674
1679545213.7541888,292500,0.36,100000.0,20.201668,1.237197,43.946384,0.644371,19.92585,-3.601556,40.18857,1.625508
1679545216.1933446,294000,0.36,100000.0,20.214674,1.113535,43.369884,0.301847,19.9247,-3.600807,40.18932,1.625171
1679545218.6343384,295500,0.37,100000.0,20.233253,0.872394,43.135597,0.456624,19.92474,-3.601127,40.1891,1.62537
1679545221.0737505,297000,0.37,100000.0,20.19981,1.353792,44.027992,0.559656,19.92499,-3.597866,40.1891,1.624092
1679545223.533908,298500,0.38,100000.0,20.234182,0.977948,43.0303,0.375343,19.92552,-3.595813,40.18889,1.623263
1679545225.973595,300000,0.38,100000.0,20.223965,0.880343,43.401474,0.423425,19.92552,-3.601538,40.18907,1.62557
1679545228.4138126,301500,0.39,100000.0,20.208172,1.185524,44.162247,0.564235,19.92499,-3.697905,40.18921,1.664661
1679545230.8542848,303000,0.39,100000.0,20.183088,1.578592,43.909531,0.416785,19.91518,-3.69939,40.19398,1.665436
1679545233.2943172,304500,0.4,100000.0,20.206314,1.022555,44.188568,0.313753,19.69728,-5.873158,40.30895,2.630791
1679545235.7363832,387000,0.67,100000.0,19.696299,3.688796,41.516651,1.692321,19.11981,-8.305089,40.42582,3.599688
1679545238.1737978,387000,0.67,100000.0,19.696299,3.688796,41.516651,1.692321,18.34978,-9.109573,40.4474,3.776533
1679545240.8740954,388500,0.68,100000.0,19.419458,5.624547,41.213924,2.448576,18.34834,-9.110715,40.44779,3.601321
1679545243.3141677,390000,0.68,100000.0,19.504927,5.70272,41.74041,2.41904,17.50478,-9.111623,40.42661,3.430859
1679545245.7540593,391500,0.69,100000.0,18.820261,8.282397,41.995754,3.443636,16.68526,-9.112373,40.40579,3.428429
1679545248.1939912,393000,0.69,100000.0,18.728291,7.921127,41.20076,3.425319,15.89089,-9.111393,40.38586,3.264963
1679545250.6345053,394500,0.7,100000.0,18.01947,9.171438,42.108948,3.662064,15.11738,-9.111994,40.36622,3.103281
1679545253.0752356,396000,0.7,100000.0,17.992531,9.167906,42.198452,3.67626,14.37325,-9.112405,40.34758,2.946635
1679545255.514264,397500,0.71,100000.0,17.135073,8.771746,41.353443,3.338773,14.37074,-9.112564,40.34751,2.793795
1679545257.9543877,399000,0.71,100000.0,17.14715,9.137874,41.9589,3.536594,13.64271,-6.602911,40.32913,1.884001
1679545260.3949978,400500,0.72,100000.0,16.324993,9.249611,42.06683,3.341978,12.93644,-9.114365,40.31135,2.645466
1679545262.8346572,402000,0.72,100000.0,16.273899,8.718747,41.20866,3.176211,12.24859,-9.114625,40.29393,2.500258
1679545265.2947392,403500,0.73,100000.0,15.508411,8.770863,41.02702,2.980221,11.56142,-9.115154,40.27648,2.355075
1679545268.4541926,405000,0.73,100000.0,15.530707,9.298192,41.853603,3.185598,10.841783,-9.108834,40.2687,2.219313
1679545271.5149257,406500,0.74,100000.0,14.74664,9.314092,41.616684,3.00907,20.44001,-0.039601,40.01191,0.018045
1679545273.975192,408000,0.74,100000.0,14.674179,8.903799,40.966476,2.824757,20.42463,-0.046872,39.99955,0.019707
