time,millis,duty,freq,v_pa,i_pa,v_ba,i_ba,meter_v_pa,meter_i_pa,meter_v_ba,meter_i_ba
1679541786.5253215,7500,0.12,50000.0,20.370745,0.364496,42.082626,0.073116,20.39915,-0.236501,40.01249,0.113401
1679541789.085823,1500,0.1,50000.0,20.400473,0.026634,43.917431,0.012671,20.39593,-0.256177,40.01302,0.121721
1679541791.545485,3000,0.1,50000.0,20.385609,0.125564,42.19582,0.047244,20.39579,-0.304127,40.01277,0.142728
1679541793.9852486,4500,0.11,50000.0,20.382822,0.382162,41.500858,0.071742,20.38992,-0.398455,40.01507,0.18678
1679541796.4263046,6000,0.11,50000.0,20.380964,0.223168,41.985226,0.157831,20.37851,-0.398646,40.02012,0.1867
1679541798.86496,1500,0.1,50000.0,20.40233,0.026192,43.885841,0.013129,20.37339,-0.440312,40.02231,0.207055
1679541801.3057907,3000,0.1,50000.0,20.394897,0.101273,42.319546,0.066705,20.37074,-0.462856,40.02342,0.217345
1679541803.7459636,4500,0.11,50000.0,20.383751,0.381721,41.508755,0.086167,20.36731,-0.516916,40.02492,0.241136
1679541806.1854656,6000,0.11,50000.0,20.385609,0.257175,41.99049,0.141117,20.36427,-0.643481,40.02607,0.2995
1679541808.625611,7500,0.12,50000.0,20.376318,0.308407,42.029976,0.059379,20.3491,-0.674262,40.03292,0.31386
1679541811.065503,9000,0.12,50000.0,20.377247,0.189161,42.253735,0.115703,20.34208,-0.702261,40.03618,0.327792
1679541813.5053935,10500,0.13,50000.0,20.3661,0.145438,41.635113,0.102194,20.33876,-0.729511,40.03743,0.340384
1679541815.9453151,12000,0.13,50000.0,20.406975,0.234651,42.064198,0.066476,20.3321,-0.785481,40.04037,0.365008
1679541818.385687,13500,0.14,50000.0,20.343803,0.185186,41.485065,0.124403,20.33217,-0.942531,40.04037,0.436341
1679541820.8255367,15000,0.14,50000.0,20.382822,0.165312,41.91415,0.064416,20.31321,-1.02431,40.04879,0.474991
1679541823.2657301,16500,0.15,50000.0,20.331728,0.386579,41.922047,0.159663,20.30348,-1.024465,40.05338,0.475154
1679541825.7059019,18000,0.15,50000.0,20.341017,0.666143,41.795689,0.113413,20.29979,-1.054997,40.05492,0.489188
1679541828.1460004,19500,0.16,50000.0,20.376318,0.370679,42.569626,0.218735,20.29313,-1.110394,40.05775,0.513529
1679541830.5856638,21000,0.16,50000.0,20.315004,0.658635,42.064198,0.116847,20.27721,-1.293833,40.06503,0.595496
1679541833.025793,22500,0.17,50000.0,20.377247,0.224935,42.595947,0.105171,20.27124,-1.40467,40.06743,0.647194
1679541835.4657743,24000,0.17,50000.0,20.322437,0.170612,41.643009,0.093951,20.25796,-1.430385,40.07338,0.658201
1679541837.9056451,25500,0.18,50000.0,20.3661,0.351247,42.564362,0.117076,20.25367,-1.440676,40.07531,0.663639
1679541840.3456342,27000,0.18,50000.0,20.328939,0.190928,42.922371,0.144094,20.24737,-1.493378,40.07811,0.68676
1679541842.7855961,28500,0.19,50000.0,20.364243,0.608287,42.377457,0.278493,20.223,-1.698835,40.08854,0.777084
1679541845.2263231,30000,0.19,50000.0,20.323366,0.585763,42.638069,0.408085,20.22311,-1.84736,40.08865,0.84514
1679541847.6659489,31500,0.2,50000.0,20.343803,0.800405,42.198452,0.212782,20.20511,-1.887606,40.09667,0.863511
1679541850.105884,33000,0.2,50000.0,20.318722,0.48595,42.106316,0.363895,20.20032,-1.888237,40.09879,0.863812
1679541852.545852,34500,0.21,50000.0,20.267626,0.492575,41.616684,0.232701,20.19445,-1.937026,40.10126,0.885094
1679541854.9858918,36000,0.21,50000.0,20.31036,0.559705,42.516975,0.196297,20.17094,-2.133425,40.11119,0.970022
1679541857.4258153,37500,0.22,50000.0,20.262981,0.420144,41.082302,0.239341,20.14572,-2.348762,40.12248,1.066515
1679541859.8666213,39000,0.22,50000.0,20.308502,0.71605,42.090523,0.201792,20.14525,-2.399287,40.12262,1.089459
1679541862.3061244,40500,0.23,50000.0,20.232325,0.969115,41.203392,0.406711,20.13942,-2.440171,40.12524,1.106758
1679541864.7461965,42000,0.23,50000.0,20.253693,1.325085,41.822014,0.320393,20.13423,-2.441436,40.12746,1.107844
1679541867.1860454,43500,0.24,50000.0,20.233253,0.83132,41.337646,0.550727,20.11287,-2.620465,40.13635,1.184
1679541869.6260448,45000,0.24,50000.0,20.216532,1.390449,41.761467,0.312379,20.07841,-2.90671,40.15119,1.310081
1679541872.067183,46500,0.25,50000.0,20.234182,0.803496,41.358707,0.362064,20.07859,-2.971734,40.15111,1.33906
1679541874.5263305,48000,0.25,50000.0,20.184946,1.231455,41.627216,0.383357,20.07047,-3.008831,40.1547,1.355052
1679541876.9660106,49500,0.26,50000.0,20.281561,1.02123,42.245834,0.479978,20.06618,-3.009552,40.15663,1.35549
1679541879.4064686,51000,0.26,50000.0,20.152431,0.891385,41.140217,0.393889,19.96882,-3.136524,40.16208,1.402895
1679541881.8461342,52500,0.27,50000.0,20.272272,1.482312,42.282688,0.501271,19.93289,-3.503574,40.18065,1.560844
1679541884.286902,54000,0.27,50000.0,20.133852,1.188615,41.261307,0.53676,19.92298,-3.603916,40.18588,1.605001
1679541886.726507,55500,0.28,50000.0,20.250904,1.612157,42.174759,0.54775,19.92302,-3.634531,40.18595,1.618133
1679541889.1664834,57000,0.28,50000.0,20.21839,1.329502,41.808853,0.784037,19.91991,-3.737698,40.1876,1.661153
1679541891.6061192,58500,0.29,50000.0,20.197023,1.587425,42.166862,0.532639,19.90992,-3.738134,40.19254,1.661178
1679541894.0464106,60000,0.29,50000.0,20.223036,1.347167,42.051037,0.710541,19.8692,-4.153343,40.21304,1.836314
1679541896.486681,61500,0.3,50000.0,20.120846,1.872289,41.766735,0.642769,19.85332,-4.312944,40.22129,1.905392
1679541898.9290676,63000,0.3,50000.0,20.210958,1.509695,42.485386,0.75908,19.85332,-4.343083,40.22139,1.918415
1679541901.3666034,64500,0.31,50000.0,20.102266,1.636007,41.300793,0.748548,19.8502,-4.408324,40.22286,1.945016
1679541903.8073013,66000,0.31,50000.0,20.209101,1.861248,42.459064,0.826166,19.84373,-4.418553,40.22602,1.947539
1679541906.2462692,67500,0.32,50000.0,20.092978,1.711529,41.398193,0.865318,19.80405,-4.813459,40.24569,2.112726
1679541908.6871219,69000,0.32,50000.0,20.200739,2.006993,42.298485,0.761828,19.7775,-5.083062,40.25938,2.227459
1679541911.1260343,70500,0.33,50000.0,20.096693,1.80295,41.50349,0.909507,19.77324,-5.124396,40.26153,2.244976
1679541913.5671568,72000,0.33,50000.0,20.178444,2.046741,42.403782,0.769841,19.7736,-5.162314,40.26135,2.260577
1679541916.006613,73500,0.34,50000.0,20.092047,2.06529,42.003651,1.124729,19.76959,-5.455466,40.26322,2.378855
1679541918.4468527,75000,0.34,50000.0,19.97871,2.048066,41.311325,0.691079,19.74021,-5.456075,40.27755,2.379174
1679541920.8864474,76500,0.35,50000.0,20.092978,2.227818,42.04314,1.081685,19.69484,-5.916326,40.30006,2.570429
1679541923.3267453,78000,0.35,50000.0,19.964775,2.123588,41.250778,0.908362,19.68819,-5.981686,40.30354,2.59784
1679541925.7669506,79500,0.36,50000.0,20.110628,2.409777,42.148438,1.09588,19.68758,-6.000364,40.30368,2.605465
1679541928.207045,81000,0.36,50000.0,19.957344,2.181444,41.16917,0.989185,19.68604,-6.061018,40.30436,2.59443
1679541930.6466465,82500,0.37,50000.0,20.066965,2.610286,42.693348,0.973387,19.42216,-6.2046,40.303,2.641494
1679541933.0869167,84000,0.37,50000.0,19.980568,2.343088,41.48243,1.070466,19.35053,-6.646677,40.3307,2.825225
1679541935.526764,85500,0.38,50000.0,19.984285,2.684925,41.99049,1.014142,19.32373,-6.863239,40.3411,2.912634
1679541937.9667532,87000,0.38,50000.0,19.963846,2.522398,41.540344,1.196623,19.32108,-6.88306,40.34206,2.920505
1679541940.4070559,88500,0.39,50000.0,19.872807,2.889409,41.57983,1.051004,19.32076,-6.918932,40.3421,2.934227
1679541942.8474796,90000,0.39,50000.0,20.069752,2.862468,42.277424,1.342928,19.31607,-7.321094,40.34386,3.087701
1679541945.2871099,91500,0.4,50000.0,19.829144,2.804171,41.061241,1.198684,19.26723,-7.320046,40.36185,3.086416
1679541947.7267308,93000,0.4,50000.0,20.053959,3.1385,42.372192,1.256381,19.20222,-7.844748,40.38672,3.292541
1679541950.1668937,94500,0.41,50000.0,19.822641,2.784297,41.387665,1.242873,19.19527,-7.894831,40.38934,3.312342
1679541952.6104932,96000,0.41,50000.0,20.027018,3.197239,42.588051,1.239896,19.19535,-7.893285,40.38912,3.311658
1679541955.0473516,97500,0.42,50000.0,19.848652,2.979064,41.661438,1.501827,19.19495,-7.912788,40.3893,3.318844
1679541957.4876258,99000,0.42,50000.0,19.879309,3.27497,42.330074,1.270119,19.1923,-8.498559,40.39013,3.530143
1679541959.9274364,100500,0.43,50000.0,19.849581,3.1279,41.658806,1.642408,18.95587,-9.097146,40.44457,3.767507
1679541962.367323,102000,0.43,50000.0,19.772474,3.608415,41.640377,1.296907,18.0948,-9.098231,40.4241,3.597877
1679541964.8073654,103500,0.44,50000.0,19.870949,3.707345,41.864132,1.644926,17.25496,-9.099337,40.404,3.432267
1679541967.2470224,105000,0.44,50000.0,19.669357,3.416298,40.903297,1.507321,17.25435,-9.100544,40.4041,3.271668
1679541969.807244,106500,0.45,50000.0,19.884882,3.783751,42.180027,1.641492,16.44416,-9.101675,40.38496,3.115975
1679541972.2675006,108000,0.45,50000.0,19.681435,3.480337,40.945415,1.555403,15.65849,-9.101131,40.36622,3.116369
1679541974.827251,109500,0.46,50000.0,19.87002,3.787725,42.40115,1.605316,14.8935,-9.102129,40.34805,2.964561
1679541977.2672374,111000,0.46,50000.0,19.709303,3.625198,41.390297,1.603256,14.15194,-9.103016,40.33035,2.816818
1679541979.7473664,112500,0.47,50000.0,19.625694,4.285906,40.987534,1.428559,13.43361,-9.103812,40.31321,2.673225
1679541982.3068974,114000,0.47,50000.0,19.683292,3.82924,41.213924,1.921968,13.43368,-9.105966,40.31325,2.533176
1679541984.747612,196500,0.75,50000.0,13.695024,9.40198,40.324162,2.645482,12.73442,-9.106918,40.29651,2.396448
1679541987.206902,196500,0.75,50000.0,13.695024,9.40198,40.324162,2.645482,12.0533,-9.111169,40.28024,2.387968
1679541989.689019,198000,0.75,50000.0,13.883608,9.513276,40.063553,2.729739,11.3911,-9.107473,40.26433,2.263184
1679541992.727471,199500,0.76,50000.0,12.922104,9.147148,40.326794,2.536497,10.665655,-9.101621,40.24892,2.132788
1679541995.7872045,201000,0.76,50000.0,13.158067,9.541541,40.176746,2.443081,20.43043,-0.121873,40.00385,0.056634
1679541998.287891,202500,0.77,50000.0,12.203995,8.868466,40.34259,2.434839,20.41361,-0.1371,40.00453,0.063176
1679542000.7271922,204000,0.77,50000.0,12.435313,9.512835,40.089874,2.282351,20.41182,-0.143931,40.00478,0.066442
1679542003.186856,205500,0.78,50000.0,11.708842,9.314533,40.363647,2.510853,20.41135,-0.148864,40.005,0.068676
1679542005.6507466,207000,0.78,50000.0,11.710701,9.491635,40.124096,2.187791,20.41071,-0.156935,40.0051,0.07213
1679542008.2072272,208500,0.79,50000.0,11.073414,9.414788,39.900341,2.406905,20.40989,-0.164433,40.00528,0.074907
1679542010.7679937,210000,0.79,50000.0,11.000023,9.530942,40.147789,2.103991,20.40778,-0.173567,40.00622,0.078857
1679542013.3268945,211500,0.8,50000.0,10.447274,9.480594,39.739761,2.160544,20.4027,-0.214908,40.00833,0.095823
1679542015.7674193,213000,0.8,50000.0,10.272624,8.644992,40.400501,2.0756,20.39221,-0.30083,40.01302,0.135117
1679542018.2474434,214500,0.1,100000.0,20.435774,0.028842,44.894062,0.012213,20.38448,-0.366712,40.01693,0.169238
1679542020.807244,216000,0.1,100000.0,20.423697,0.027517,44.033257,0.012442,20.38455,-0.394229,40.01697,0.183959
1679542023.3674195,217500,0.11,100000.0,20.382822,0.098181,43.380413,0.045641,20.38119,-0.406983,40.01865,0.190538
1679542025.8071375,219000,0.11,100000.0,20.405117,0.087582,43.467285,0.024119,20.37994,-0.406439,40.01937,0.190296
1679542028.2473748,220500,0.12,100000.0,20.394897,0.155154,42.993446,0.036711,20.37897,-0.413498,40.01973,0.193666
1679542030.7071183,222000,0.12,100000.0,20.400473,0.078749,43.180347,0.034193,20.37801,-0.420974,40.02009,0.19695
1679542033.147174,223500,0.13,100000.0,20.409761,0.189603,43.630493,0.049075,20.37604,-0.437552,40.02102,0.20421
1679542035.5873384,225000,0.13,100000.0,20.403259,0.09509,43.31197,0.041291,20.37611,-0.480446,40.02091,0.222284
1679542038.0277414,226500,0.14,100000.0,20.42091,0.073449,46.004948,0.025721,20.37078,-0.59418,40.0231,0.272433
1679542040.4670994,228000,0.14,100000.0,20.37446,0.102156,46.00758,0.051594,20.35718,-0.593128,40.0289,0.2719
1679542042.9071708,229500,0.15,100000.0,20.395828,0.028842,44.478138,0.013358,20.34198,-0.720359,40.03618,0.333896
1679542045.3472254,231000,0.15,100000.0,20.385609,0.030167,44.796661,0.013129,20.33596,-0.771076,40.03926,0.35983
1679542047.7871175,232500,0.16,100000.0,20.377247,0.154712,45.091492,0.042207,20.33593,-0.79143,40.03922,0.370044
1679542050.2276554,234000,0.16,100000.0,20.398615,0.126889,44.691364,0.079527,20.33375,-0.800232,40.04033,0.374277
1679542052.6670396,235500,0.17,100000.0,20.403259,0.179003,43.290909,0.080901,20.33246,-0.800203,40.04094,0.374313
1679542055.1073008,237000,0.17,100000.0,20.406975,0.393203,44.067478,0.103339,20.33185,-0.807128,40.04134,0.377579
1679542057.5471575,238500,0.18,100000.0,20.359596,0.113639,43.914795,0.064645,20.33013,-0.821623,40.04205,0.383947
1679542059.9872038,240000,0.18,100000.0,20.375389,0.198436,43.706833,0.028698,20.32523,-0.861596,40.04406,0.40091
1679542062.4271004,241500,0.19,100000.0,20.383751,0.380396,43.414635,0.166303,20.3253,-0.976137,40.0441,0.450219
1679542064.8873358,243000,0.19,100000.0,20.352165,0.376421,43.333031,0.128524,20.31145,-1.176604,40.0499,0.543345
1679542067.3268383,244500,0.2,100000.0,20.351236,0.557939,42.717041,0.194465,20.28741,-1.177267,40.06087,0.543844
1679542069.7674098,246000,0.2,100000.0,20.35681,0.500083,43.338295,0.153023,20.27671,-1.266861,40.06607,0.588092
1679542072.2078311,247500,0.21,100000.0,20.377247,0.576488,43.096111,0.171111,20.27292,-1.297948,40.06786,0.603534
1679542074.6473038,249000,0.21,100000.0,20.335443,0.44576,42.448532,0.20225,20.27238,-1.309924,40.06818,0.609269
1679542077.0879636,250500,0.22,100000.0,20.379105,0.342855,42.882885,0.175919,20.27156,-1.315109,40.06854,0.611669
1679542079.527466,252000,0.22,100000.0,20.371674,0.45371,43.44096,0.177522,20.27095,-1.321321,40.06904,0.614392
1679542081.9673715,253500,0.23,100000.0,20.367029,0.413078,43.748955,0.210263,20.2697,-1.327612,40.06947,0.61723
1679542084.4072862,255000,0.23,100000.0,20.349379,0.402036,43.877941,0.17134,20.26566,-1.36041,40.07116,0.631336
1679542086.8475943,256500,0.24,100000.0,20.33823,0.187836,43.459385,0.079985,20.25395,-1.457999,40.07603,0.672731
1679542089.2906215,258000,0.24,100000.0,20.34845,0.295157,43.338295,0.112955,20.25399,-1.715283,40.07614,0.787475
1679542091.727576,259500,0.25,100000.0,20.321508,0.29604,43.346191,0.225375,20.2229,-1.87585,40.08968,0.864065
1679542094.1672952,261000,0.25,100000.0,20.323366,0.390995,43.701569,0.134935,20.20386,-1.876358,40.09857,0.864456
1679542096.6073308,262500,0.26,100000.0,20.318722,0.169287,44.009563,0.13173,20.1976,-1.927899,40.10166,0.889467
1679542099.0471835,264000,0.26,100000.0,20.316864,0.201086,43.269852,0.137912,20.19556,-1.945504,40.10248,0.897766
1679542101.4879868,265500,0.27,100000.0,20.31036,0.628161,43.935856,0.236365,20.19513,-1.950678,40.1028,0.900271
1679542103.927194,267000,0.27,100000.0,20.317793,0.638319,44.206997,0.286049,20.19506,-1.957801,40.10287,0.903414
1679542106.3670359,268500,0.28,100000.0,20.319651,0.581346,43.369884,0.292918,20.1942,-1.971295,40.10327,0.908479
1679542108.8070235,270000,0.28,100000.0,20.288994,0.641411,43.622597,0.261321,20.19159,-1.980464,40.10424,0.913132
1679542111.2473526,271500,0.29,100000.0,20.290852,0.684251,43.472549,0.245294,20.18243,-2.056413,40.10821,0.944953
1679542113.6893091,273000,0.29,100000.0,20.264839,1.021671,43.385677,0.418388,20.15363,-2.296622,40.12026,1.048133
1679542116.1277888,274500,0.3,100000.0,20.313147,0.489042,43.538361,0.247355,20.15323,-2.590332,40.12047,1.182563
1679542118.5674353,276000,0.3,100000.0,20.269485,0.746965,43.504139,0.356798,20.11827,-2.679876,40.1361,1.224935
1679542121.007582,277500,0.31,100000.0,20.290852,0.775672,44.496563,0.358629,20.10754,-2.67847,40.14097,1.224511
1679542123.4474545,279000,0.31,100000.0,20.319651,0.573397,44.486034,0.274601,20.10461,-2.705191,40.14258,1.237075
1679542125.8871949,280500,0.32,100000.0,20.289923,0.484625,44.304398,0.20225,20.10371,-2.713416,40.14305,1.240894
1679542128.3273284,282000,0.32,100000.0,20.278774,0.702358,43.669979,0.219651,20.10343,-2.714778,40.14312,1.24151
1679542130.7677786,283500,0.33,100000.0,20.288065,0.486833,44.786133,0.203623,20.1036,-2.726229,40.14301,1.246488
1679542133.2069297,285000,0.33,100000.0,20.302,0.489042,45.144142,0.175919,20.10199,-2.774081,40.14369,1.266188
1679542135.6472464,286500,0.34,100000.0,20.223965,0.427211,43.641026,0.195839,20.09634,-2.776066,40.14606,1.267423
1679542138.086988,288000,0.34,100000.0,20.250904,0.462543,43.464649,0.172256,20.07641,-2.941133,40.15434,1.335874
1679542140.5473082,289500,0.35,100000.0,20.24626,0.83927,44.933548,0.360232,19.9583,-3.345389,40.17437,1.507679
1679542142.987346,291000,0.35,100000.0,20.214674,1.13915,43.938488,0.308945,19.95833,-3.542005,40.17448,1.598198
1679542145.4291039,292500,0.36,100000.0,20.216532,1.189498,43.214569,0.451587,19.93887,-3.592563,40.1852,1.621634
1679542147.8675861,294000,0.36,100000.0,20.233253,1.241171,44.509727,0.496234,19.9339,-3.593265,40.18803,1.622083
1679542150.3075643,295500,0.37,100000.0,20.221178,1.146658,44.030624,0.430523,19.93286,-3.605854,40.18853,1.627796
1679542152.7469757,297000,0.37,100000.0,20.197952,1.160349,42.717041,0.360919,19.93282,-3.604035,40.1886,1.627029
1679542155.1874003,298500,0.38,100000.0,20.215603,1.206281,44.035889,0.471278,19.93322,-3.602943,40.18846,1.626286
1679542157.630615,300000,0.38,100000.0,20.223036,1.140917,44.106964,0.563091,19.93311,-3.59992,40.18849,1.625052
1679542160.0673852,301500,0.39,100000.0,20.19981,1.117068,43.117168,0.391371,19.93325,-3.605447,40.18842,1.627391
1679542162.5073447,303000,0.39,100000.0,20.236971,0.977948,43.10664,0.354508,19.93243,-3.603386,40.18864,1.626543
1679542164.947375,304500,0.4,100000.0,20.201668,1.060978,44.696629,0.423654,19.9227,-3.701526,40.19322,1.666091
1679542167.3876946,306000,0.4,100000.0,20.193308,1.288428,44.514992,0.563777,19.70461,-5.919022,40.3101,2.652167
1679542169.8272913,307500,0.41,100000.0,20.195166,0.741224,43.56205,0.351531,19.66511,-8.450123,40.3192,3.664504
1679542172.2673244,309000,0.41,100000.0,20.180302,0.688226,44.425488,0.366414,19.13659,-9.1114,40.4322,3.777637
1679542174.7074275,310500,0.42,100000.0,20.129208,1.297261,43.39621,0.546147,18.34799,-9.116678,40.446,3.76743
1679542177.1487558,391500,0.69,100000.0,18.741297,8.260756,41.590363,3.5904,17.50446,-9.111439,40.42485,3.602291
1679542179.5882437,393000,0.69,100000.0,18.810041,8.122962,41.714085,3.46264,16.68475,-9.112492,40.40432,3.431109
1679542182.027268,394500,0.7,100000.0,17.967447,9.062351,41.743042,3.618333,15.89196,-9.113227,40.38446,3.265926
1679542184.4676297,396000,0.7,100000.0,17.942366,9.007145,41.674599,3.602077,15.89064,-9.113868,40.38443,3.104215
1679542186.9074464,397500,0.71,100000.0,17.172232,9.055285,41.729881,3.465388,15.1172,-9.114322,40.36489,2.947931
1679542189.3473427,399000,0.71,100000.0,17.124853,9.042477,42.077362,3.463785,14.37031,-9.113533,40.34608,2.947569
1679542191.7913368,400500,0.72,100000.0,16.226521,8.948405,41.566669,3.201397,13.64214,-9.113742,40.32784,2.794722
1679542194.2273643,402000,0.72,100000.0,16.360294,9.106957,41.953636,3.261384,12.93543,-9.116495,40.30988,2.646508
1679542196.6673026,403500,0.73,100000.0,15.55579,9.211187,42.001019,3.160413,12.60453,-9.116664,40.30171,2.501279
1679542199.1075413,405000,0.73,100000.0,15.568796,8.934714,41.20076,3.022579,12.24812,-9.117341,40.29271,2.356013
1679542201.5473657,406500,0.74,100000.0,14.711338,8.933831,40.887501,2.878334,11.56081,-9.120296,40.27551,2.292475
1679542204.5523336,408000,0.74,100000.0,14.759645,9.260652,41.524551,3.051657,10.840073,-3.362731,40.25935,2.220298
1679542207.547384,409500,0.75,100000.0,13.938418,8.957238,40.998066,2.682115,20.44145,-0.042228,39.99915,0.018063
1679542209.987624,411000,0.75,100000.0,13.957928,8.828277,40.782204,2.662425,20.42552,-0.046548,39.99923,0.019519
1679542212.4275224,412500,0.76,100000.0,13.280694,9.385198,41.561405,2.71188,20.42334,-0.054374,39.99948,0.022118
1679542214.8679512,414000,0.76,100000.0,13.278836,9.409929,41.398193,2.727678,20.42202,-0.063353,39.99984,0.025228
1679542217.3073683,415500,0.77,100000.0,12.5663,8.876416,40.916458,2.371646,20.4218,-0.086419,39.99984,0.033501
